C:\Users\davide\Experimental Activities\NIPS FTFF channels\Test channels\21.03.25\0_ch\I\PEIS_PCGA\NIPS_420um_0ch_9.5mLmin_02_PCGA_C01.mpr
<I>/mA	Ewe/V
0,000000000000000E+000	1,787360059097409E-003
0,000000000000000E+000	4,428780230227858E-004
0,000000000000000E+000	3,169361443724483E-004
0,000000000000000E+000	2,940375998150557E-004
0,000000000000000E+000	2,482405689079314E-004
0,000000000000000E+000	1,871778367785737E-004
0,000000000000000E+000	1,337479479843751E-004
0,000000000000000E+000	3,833743539871648E-005
0,000000000000000E+000	-4,180740143056028E-005
0,000000000000000E+000	-9,905370097840205E-005
1,263678296541119E-003	-1,410343247698620E-004
5,956427919611737E+000	-1,334014668827876E-004
5,879757552862562E+000	-5,325665188138373E-005
2,425321411366428E+002	2,213923074305058E-002
1,571230857860375E+002	2,486797049641609E-002
1,558310761209393E+002	2,489086985588074E-002
1,572668107840870E+002	2,491758577525616E-002
3,971456093979764E+002	4,719403386116028E-002
3,146184589057486E+002	4,991132393479347E-002
3,152797987803285E+002	4,986934736371040E-002
3,170424605102780E+002	4,989605769515038E-002
3,182918630987930E+002	4,985407739877701E-002
3,192508603520308E+002	4,986934363842011E-002
3,205716258912831E+002	4,989987611770630E-002
5,565717303687783E+002	7,232134789228439E-002
4,775648343182426E+002	7,497376203536987E-002
4,750428897890096E+002	7,489361613988876E-002
4,778186290904806E+002	7,492033392190933E-002
4,788014202474145E+002	7,494322955608368E-002
4,795004189188568E+002	7,495085895061493E-002
4,812242249500833E+002	7,491651177406311E-002
4,804472656042857E+002	7,496231049299240E-002
4,832011823188864E+002	7,498902827501297E-002
7,164174985669782E+002	9,733798354864120E-002
6,383195670017908E+002	1,000094786286354E-001
6,346421317844680E+002	9,995986521244049E-002
6,361006280660778E+002	9,994459897279739E-002
6,371308945335047E+002	9,994459897279739E-002
6,383885388646512E+002	9,998276829719543E-002
6,392695671504384E+002	9,995605051517487E-002
6,403204138193761E+002	9,992934018373489E-002
6,410694477974936E+002	9,995986521244049E-002
6,419209964751133E+002	9,993315488100052E-002
6,425973720096453E+002	9,995986521244049E-002
6,430623693254491E+002	9,994842112064362E-002
8,765797950934870E+002	1,221638023853302E-001
7,995857756565681E+002	1,248620077967644E-001
7,912995412025383E+002	1,249116286635399E-001
7,955063128402098E+002	1,249001771211624E-001
7,949527522027440E+002	1,249154433608055E-001
7,959708501290371E+002	1,249497905373573E-001
7,983453709845957E+002	1,249497905373573E-001
7,966503376678007E+002	1,249612420797348E-001
8,010953779419584E+002	1,249307096004486E-001
7,976117729890500E+002	1,249383464455605E-001
8,028701765790311E+002	1,249307096004486E-001
7,991665359258081E+002	1,249268874526024E-001
8,041436534974616E+002	1,249230727553368E-001
8,012553748769162E+002	1,248963624238968E-001
8,103274222830153E+002	1,249383464455605E-001
1,026081446819435E+003	1,473750770092011E-001
9,551433263978955E+002	1,499168127775192E-001
9,514132034347216E+002	1,499435305595398E-001
9,550366746041848E+002	1,499549746513367E-001
9,507855798279769E+002	1,498862802982330E-001
9,523750632400878E+002	1,498939245939255E-001
9,576379207990504E+002	1,499244421720505E-001
9,555094858508854E+002	1,499015539884567E-001
9,540060861709431E+002	1,499664336442947E-001
9,584721064530726E+002	1,499053686857224E-001
9,603916276084583E+002	1,498786509037018E-001
9,565662112293392E+002	1,499473452568054E-001
9,583380211132904E+002	1,498824656009674E-001
9,628112739768710E+002	1,499320715665817E-001
9,604364202890317E+002	1,499129980802536E-001
9,588126719427187E+002	1,499626189470291E-001
9,629841189431135E+002	1,499549895524979E-001
1,200192291061595E+003	1,723993420600891E-001
1,115853019165725E+003	1,748838424682617E-001
1,109307790916047E+003	1,749181896448135E-001
1,109432279033272E+003	1,748762130737305E-001
1,108184932430374E+003	1,749143749475479E-001
1,107859213660691E+003	1,749029308557510E-001
1,108116288062595E+003	1,748456805944443E-001
1,109570144107048E+003	1,748494952917099E-001
1,110641080890703E+003	1,748533099889755E-001
1,112235941617838E+003	1,749525517225266E-001
1,114059514023667E+003	1,748953014612198E-001
1,114784844190352E+003	1,748991161584854E-001
1,114709499228692E+003	1,748533248901367E-001
1,113502313092981E+003	1,749067455530167E-001
1,113652487126545E+003	1,748265922069550E-001
1,113586350903709E+003	1,749143749475479E-001
1,114293828721632E+003	1,748762130737305E-001
1,115370123990470E+003	1,749067455530167E-001
1,117098073952898E+003	1,748876571655273E-001
1,123135401348080E+003	1,748609393835068E-001
1,327864413427489E+003	1,973969191312790E-001
1,269773128820508E+003	1,998814046382904E-001
1,259951279519553E+003	1,998470574617386E-001
1,260961102626334E+003	1,999195665121078E-001
1,260753352797894E+003	1,998928487300873E-001
1,260973018111977E+003	1,998775750398636E-001
1,260827258927332E+003	1,998546868562698E-001
1,262166024845419E+003	1,998966634273529E-001
1,261849972945100E+003	1,999157369136810E-001
1,262469013019747E+003	1,998928338289261E-001
1,262619338580907E+003	1,998966634273529E-001
1,263730239891051E+003	1,998890489339828E-001
1,263460326852179E+003	1,998775750398636E-001
1,263958984626321E+003	1,999042928218842E-001
1,263715164892672E+003	1,998890340328217E-001
1,265048372110381E+003	1,998737752437592E-001
1,264738442028155E+003	1,999119371175766E-001
1,265377034396329E+003	1,999081075191498E-001
1,265556644257899E+003	1,999310106039047E-001
1,266483187871130E+003	1,999004781246185E-001
1,266634778846802E+003	1,999424695968628E-001
1,267498741419686E+003	1,999081075191498E-001
1,286835125428905E+003	1,999386399984360E-001
1,513539955227423E+003	2,225356698036194E-001
1,414866652493793E+003	2,250087112188339E-001
1,408445405820670E+003	2,249514609575272E-001
1,410478774545311E+003	2,249362021684647E-001
1,411539128843551E+003	2,249705493450165E-001
1,411811720599494E+003	2,249400168657303E-001
1,409890053783573E+003	2,250354140996933E-001
1,408107462450294E+003	2,249896228313446E-001
1,406097030977946E+003	2,249934524297714E-001
1,407885263179475E+003	2,250048816204071E-001
1,410201837759638E+003	2,249896228313446E-001
1,413155807940380E+003	2,249858230352402E-001
1,415233584282050E+003	2,249858230352402E-001
1,415020036874042E+003	2,249743640422821E-001
1,413549178394899E+003	2,249820083379745E-001
1,410259707412712E+003	2,249552905559540E-001
1,410402926917344E+003	2,249934375286102E-001
1,411539746105492E+003	2,250048965215683E-001
1,414076989748973E+003	2,249781936407089E-001
1,416554249124424E+003	2,249743640422821E-001
1,417686879260463E+003	2,249896228313446E-001
1,418376056462884E+003	2,249514609575272E-001
1,415694959262739E+003	2,250125259160995E-001
1,412961724147215E+003	2,249476462602615E-001
1,413111883407284E+003	2,250163555145264E-001
1,615646158978717E+003	2,475294172763824E-001
1,571134969872552E+003	2,499146759510040E-001
1,552896636723801E+003	2,500024437904358E-001
1,545779579813740E+003	2,499413788318634E-001
1,552108992468114E+003	2,499719113111496E-001
1,558696773831316E+003	2,499719262123108E-001
1,558192131117513E+003	2,499413788318634E-001
1,551089254617739E+003	2,499757409095764E-001
1,547254203558555E+003	2,499642819166183E-001
1,554663312449327E+003	2,499757409095764E-001
1,561000404247858E+003	2,499986439943314E-001
1,559285981145996E+003	2,499642819166183E-001
1,551925852151132E+003	2,499490082263947E-001
1,550235061853938E+003	2,500215470790863E-001
1,558156049173092E+003	2,499719262123108E-001
1,563628365428818E+003	2,499604672193527E-001
1,560053199296558E+003	2,499948143959045E-001
1,552232470812899E+003	2,499757409095764E-001
1,553623031398738E+003	2,500291764736176E-001
1,561571691058253E+003	2,499681115150452E-001
1,565342492286744E+003	2,499604821205139E-001
1,559563229726545E+003	2,499223202466965E-001
1,553030003872042E+003	2,499986439943314E-001
1,556569074686404E+003	2,499032318592072E-001
1,564288596318602E+003	2,499337494373322E-001
1,566625020707968E+003	2,499910145998001E-001
1,557416233115701E+003	2,499490082263947E-001
1,812497238170344E+003	2,725498676300049E-001
1,698535738097093E+003	2,749389410018921E-001
1,701652395415449E+003	2,749809324741364E-001
1,702503486790847E+003	2,749274969100952E-001
1,684741112076110E+003	2,748702466487885E-001
1,689566653497781E+003	2,749046087265015E-001
1,703375417951227E+003	2,749389708042145E-001
1,698970519092439E+003	2,749122381210327E-001
1,682949544961948E+003	2,749046087265015E-001
1,696412388617554E+003	2,749694883823395E-001
1,706115957260530E+003	2,749160528182983E-001
1,691747052611053E+003	2,749656736850739E-001
1,688075157278737E+003	2,749541997909546E-001
1,703654147114384E+003	2,749084234237671E-001
1,705328785046439E+003	2,749160528182983E-001
1,688074455923876E+003	2,749122381210327E-001
1,693753165803070E+003	2,749274969100952E-001
1,707583534714962E+003	2,749351561069489E-001
1,702649287201937E+003	2,749656736850739E-001
1,687143046012703E+003	2,749733030796051E-001
1,701098863978565E+003	2,748855054378510E-001
1,709925434002229E+003	2,749007940292358E-001
1,694148198637711E+003	2,749618589878082E-001
1,692249816762541E+003	2,749656438827515E-001
1,707762024188863E+003	2,748969793319702E-001
1,707697485003936E+003	2,749771177768707E-001
1,690147030849581E+003	2,749198675155640E-001
1,698127772551728E+003	2,749313116073608E-001
1,711131583294659E+003	2,749351263046265E-001
1,674949308513065E+003	2,748893201351166E-001
1,895952196333281E+003	2,975398004055023E-001
1,862339672115762E+003	2,998601794242859E-001
1,818995216279737E+003	2,999250590801239E-001
1,829799919503788E+003	2,998868823051453E-001
1,846032421378944E+003	2,998754382133484E-001
1,818500608029822E+003	2,999098002910614E-001
1,828047056687324E+003	2,999517619609833E-001
1,847348518924915E+003	2,999403178691864E-001
1,821235995769664E+003	2,999441325664520E-001
1,826772364649640E+003	2,999403178691864E-001
1,847977331756883E+003	2,999136149883270E-001
1,823993156216779E+003	2,998945116996765E-001
1,827159927489540E+003	2,999975681304932E-001
1,849999096342878E+003	2,999136149883270E-001
1,827415245335761E+003	2,999098002910614E-001
1,827042683411970E+003	2,999136149883270E-001
1,850470990900464E+003	2,999594211578369E-001
1,829410375199248E+003	2,999861240386963E-001
1,827584504399553E+003	2,999326884746552E-001
1,851778096759720E+003	2,999441325664520E-001
1,832410283854515E+003	2,999517619609833E-001
1,826705904832706E+003	2,999326884746552E-001
1,852007057539877E+003	2,999479472637177E-001
1,834302667499201E+003	2,999288737773895E-001
1,827305844090110E+003	2,999021410942078E-001
1,852967360109154E+003	2,999288737773895E-001
1,836992014952041E+003	2,999250590801239E-001
1,826689816772802E+003	2,999288737773895E-001
1,852716411658199E+003	2,998983263969421E-001
1,838426368432127E+003	2,998983561992645E-001
1,827746862281589E+003	2,999441325664520E-001
1,870076147005737E+003	2,998868823051453E-001
2,077699027096467E+003	3,225449919700623E-001
1,961951247991277E+003	3,248768150806427E-001
1,984840430785323E+003	3,248920738697052E-001
1,959999937305839E+003	3,249264359474182E-001
1,955425797763747E+003	3,249149918556213E-001
1,985140504912743E+003	3,248997330665588E-001
1,948413500048395E+003	3,248920738697052E-001
1,970719471852864E+003	3,248615562915802E-001
1,978538597071121E+003	3,249302506446838E-001
1,945057703804757E+003	3,248653709888458E-001
1,984234642974127E+003	3,249073624610901E-001
1,963346257724321E+003	3,248500823974609E-001
1,956958048782267E+003	3,249111771583557E-001
1,990336081748884E+003	3,249073326587677E-001
1,950939238612063E+003	3,249455094337463E-001
1,972625670082594E+003	3,249226212501526E-001
1,983987234647212E+003	3,249188065528870E-001
1,947610893719235E+003	3,249264359474182E-001
1,986479930160996E+003	3,249722421169281E-001
1,970801291306123E+003	3,249416947364807E-001
1,958311506163028E+003	3,249340653419495E-001
1,992521449312454E+003	3,249264359474182E-001
1,954665353311546E+003	3,248768150806427E-001
1,975258621179935E+003	3,249416947364807E-001
1,986232725403921E+003	3,248959183692932E-001
1,952430521567832E+003	3,248997032642365E-001
1,989922647543763E+003	3,249416947364807E-001
1,971213458057912E+003	3,248806297779083E-001
1,961628948037530E+003	3,248844742774963E-001
1,995470478220402E+003	3,249722123146057E-001
1,956008507118990E+003	3,249569833278656E-001
1,977864347233814E+003	3,249111473560333E-001
1,990747955762686E+003	3,249073624610901E-001
1,949797061349877E+003	3,249264359474182E-001
2,167981255939688E+003	3,475692570209503E-001
2,142500307040083E+003	3,498820066452026E-001
2,069749032891085E+003	3,498896360397339E-001
2,113321833281644E+003	3,498629331588745E-001
2,091186126499735E+003	3,499010801315308E-001
2,084303365633167E+003	3,499087095260620E-001
2,121789825731732E+003	3,498934805393219E-001
2,066776496761252E+003	3,498743772506714E-001
2,120452979803897E+003	3,499392271041870E-001
2,083420793423240E+003	3,499125540256500E-001
2,095490759222019E+003	3,498591184616089E-001
2,114105160246120E+003	3,499201834201813E-001
2,072886806932563E+003	3,498896360397339E-001
2,127201785041462E+003	3,498362004756927E-001
2,076295765798448E+003	3,499163389205933E-001
2,108236632386864E+003	3,498476743698120E-001
2,106693224732536E+003	3,499163389205933E-001
2,079936236000622E+003	3,498972654342651E-001
2,127352760084422E+003	3,498934507369995E-001
2,075008300410164E+003	3,499125540256500E-001
2,120380700834168E+003	3,499049246311188E-001
2,096110771351068E+003	3,498552739620209E-001
2,092668252189350E+003	3,499468863010406E-001
2,125616948286499E+003	3,498972654342651E-001
2,072917616333171E+003	3,499010801315308E-001
2,128167051895723E+003	3,498705625534058E-001
2,089269718850782E+003	3,499507009983063E-001
2,105525646837255E+003	3,498629331588745E-001
2,117184677667680E+003	3,498820066452026E-001
2,079490737168554E+003	3,498972654342651E-001
2,133139179216235E+003	3,499049246311188E-001
2,078359703775591E+003	3,499583303928375E-001
2,118468178369914E+003	3,499621450901031E-001
2,108411543850988E+003	3,498934507369995E-001
2,090331734968012E+003	3,498934507369995E-001
2,131622451609717E+003	3,499049246311188E-001
2,110052602132537E+003	3,498667180538177E-001
2,316887753842008E+003	3,726469576358795E-001
2,208107646925727E+003	3,749367892742157E-001
2,257962375901569E+003	3,749635517597198E-001
2,191253484675701E+003	3,749788105487823E-001
2,239423378799826E+003	3,750207722187042E-001
2,216658635102677E+003	3,750207722187042E-001
2,214682955242473E+003	3,750436902046204E-001
2,239371256905057E+003	3,749787807464600E-001
2,193653640933523E+003	3,749940693378448E-001
2,257871616903116E+003	3,750474750995636E-001
2,183968093544112E+003	3,749711513519287E-001
2,257777488351116E+003	3,749749958515167E-001
2,196679545261526E+003	3,749749660491943E-001
2,244297197566135E+003	3,750131428241730E-001
2,215129064600111E+003	3,750207722187042E-001
2,221296783075803E+003	3,749787807464600E-001
2,241995740790752E+003	3,750016987323761E-001
2,198655307034981E+003	3,750016987323761E-001
2,259342625469488E+003	3,750360310077667E-001
2,190975461330545E+003	3,750207722187042E-001
2,263863969238968E+003	3,749711513519287E-001
2,195174378887506E+003	3,749940395355225E-001
2,250448702725140E+003	3,749673366546631E-001
2,215624367173943E+003	3,749787807464600E-001
2,228093788821869E+003	3,749597072601318E-001
2,239826959300251E+003	3,749940693378448E-001
2,206331870072473E+003	3,750207722187042E-001
2,263863037439653E+003	3,750093281269073E-001
2,191910130836549E+003	3,750284016132355E-001
2,266538708573373E+003	3,749902546405792E-001
2,195695757377896E+003	3,750093281269073E-001
2,257086724124616E+003	3,749711513519287E-001
2,212050948671393E+003	3,749749660491943E-001
2,236295906770178E+003	3,750055134296417E-001
2,241505892595286E+003	3,749406337738037E-001
2,212253536015134E+003	3,749940693378448E-001
2,260468847569543E+003	3,749864101409912E-001
2,197173609635011E+003	3,749597072601318E-001
2,225614085279820E+003	3,749635219573975E-001
2,442146301928180E+003	3,976597785949707E-001
2,410589806637302E+003	3,999229073524475E-001
2,295492591744061E+003	3,999305367469788E-001
2,383050241344595E+003	3,999648988246918E-001
2,305337080925281E+003	3,999687135219574E-001
2,373386119340427E+003	3,999763727188110E-001
2,312049955658772E+003	4,000107049942017E-001
2,360484151624928E+003	4,000068604946136E-001
2,327584681652661E+003	3,999839723110199E-001
2,347067108010530E+003	3,999648988246918E-001
2,342400363844739E+003	3,999992311000824E-001
2,332663314985807E+003	3,999496102333069E-001
2,365214447612949E+003	3,999114632606506E-001
2,317346137242873E+003	3,999305665493011E-001
2,376057297079389E+003	3,999267220497131E-001
2,306960762775223E+003	3,999839723110199E-001
2,387566719448070E+003	3,999381661415100E-001
2,298952077428067E+003	3,999801576137543E-001
2,392268432940344E+003	3,999267220497131E-001
2,300613860788364E+003	3,999229073524475E-001
2,395365823122108E+003	3,999801576137543E-001
2,299712076014563E+003	4,000183045864105E-001
2,389941851311804E+003	3,999916017055511E-001
2,307961634012649E+003	3,999877870082855E-001
2,382431723686354E+003	3,999687135219574E-001
2,316772583499953E+003	3,999114632606506E-001
2,370588922251241E+003	3,999992311000824E-001
2,335900643147783E+003	3,999572396278381E-001
2,357416732401337E+003	4,000107049942017E-001
2,346541331200361E+003	3,999801576137543E-001
2,343384201346803E+003	3,999572694301605E-001
2,362844454044818E+003	3,999610841274261E-001
2,329102145687701E+003	3,999801576137543E-001
2,376364942310873E+003	3,999725282192230E-001
2,318422343425166E+003	3,999801576137543E-001
2,392393934025845E+003	3,999610841274261E-001
2,307176078668066E+003	3,999229073524475E-001
2,396561113118521E+003	3,999648988246918E-001
2,304356646972126E+003	3,999763131141663E-001
2,400544954588178E+003	3,999496400356293E-001
2,328290111830948E+003	3,999725282192230E-001
2,518315981586763E+003	4,226077198982239E-001
2,428709224256364E+003	4,250044226646423E-001
2,511450444314848E+003	4,249739050865173E-001
2,402183342074993E+003	4,249548316001892E-001
2,509793264855627E+003	4,249853491783142E-001
2,398246258092935E+003	4,249433875083923E-001
2,507443659990400E+003	4,249739050865173E-001
2,399803039009576E+003	4,249242842197418E-001
2,507894381347327E+003	4,249204695224762E-001
2,400218804124211E+003	4,249662756919861E-001
2,506616346597918E+003	4,249090254306793E-001
2,408014655124450E+003	4,249242842197418E-001
2,507837876702262E+003	4,249548017978668E-001
2,404292343363694E+003	4,249929785728455E-001
2,507623456508151E+003	4,249891638755798E-001
2,406989221810529E+003	4,249510169029236E-001
2,507610425926998E+003	4,250044226646423E-001
2,405795979313342E+003	4,249586462974548E-001
2,506752337756542E+003	4,250120520591736E-001
2,413666694840144E+003	4,249624311923981E-001
2,507963413216190E+003	4,249280989170074E-001
2,410128773456614E+003	4,250082671642303E-001
2,507013781927442E+003	4,249662756919861E-001
2,411745477008952E+003	4,249700903892517E-001
2,507820732982521E+003	4,250158965587616E-001
2,411387249832036E+003	4,249777197837830E-001
2,506512857417172E+003	4,249700903892517E-001
2,419090108716482E+003	4,249472022056580E-001
2,507663419412464E+003	4,249815344810486E-001
2,415234463460942E+003	4,249242842197418E-001
2,508017096196897E+003	4,249815642833710E-001
2,416801169703716E+003	4,249662756919861E-001
2,507922652818811E+003	4,249548017978668E-001
2,415413334761493E+003	4,249624609947205E-001
2,507446754047864E+003	4,249662756919861E-001
2,422880386824326E+003	4,249777197837830E-001
2,508224544647584E+003	4,249700903892517E-001
2,417899669052950E+003	4,249510169029236E-001
2,507343810892626E+003	4,249510169029236E-001
2,419357699306961E+003	4,249433577060699E-001
2,508288899206428E+003	4,249853491783142E-001
2,413344896256703E+003	4,249967932701111E-001
2,719057685876675E+003	4,476625323295593E-001
2,648963557189609E+003	4,499599933624268E-001
2,497246053490778E+003	4,499256610870361E-001
2,633586977163963E+003	4,499714672565460E-001
2,483670466431742E+003	4,499447345733643E-001
2,635316184514764E+003	4,499600231647491E-001
2,482851459543224E+003	4,499218165874481E-001
2,635339393312188E+003	4,499104022979736E-001
2,484043077514360E+003	4,499180018901825E-001
2,629838916433835E+003	4,499371051788330E-001
2,494916202752192E+003	4,499294757843018E-001
2,627816192139809E+003	4,499714672565460E-001
2,500751338010293E+003	4,499600231647491E-001
2,610389629696979E+003	4,499332606792450E-001
2,516473175000053E+003	4,499485492706299E-001
2,597130805731279E+003	4,499027729034424E-001
2,532421947767269E+003	4,499218463897705E-001
2,576469846151517E+003	4,499981701374054E-001
2,552124633920720E+003	4,499256610870361E-001
2,567880737639493E+003	4,499256610870361E-001
2,569629308904938E+003	4,499332904815674E-001
2,544364332853371E+003	4,499065577983856E-001
2,588447289166013E+003	4,499638080596924E-001
2,529077354394025E+003	4,499829113483429E-001
2,605594371657917E+003	4,499371051788330E-001
2,513229122603437E+003	4,499294757843018E-001
2,618967222107792E+003	4,499676525592804E-001
2,509856250823693E+003	4,499676227569580E-001
2,631996842620018E+003	4,499752819538116E-001
2,494271997919432E+003	4,499294757843018E-001
2,639883392170758E+003	4,499256610870361E-001
2,491531332875360E+003	4,499599933624268E-001
2,644617183519344E+003	4,499561786651611E-001
2,488111372693051E+003	4,499981701374054E-001
2,642150660308308E+003	4,499867260456085E-001
2,497006349988602E+003	4,499561786651611E-001
2,641891155155523E+003	4,499447345733643E-001
2,501309941610578E+003	4,499332904815674E-001
2,626853706869212E+003	4,499523937702179E-001
2,513780194042647E+003	4,499447345733643E-001
2,613326954081558E+003	4,499638080596924E-001
2,530020738740894E+003	4,499714374542236E-001
2,593083305713597E+003	4,499027431011200E-001
2,581663160297839E+003	4,499561786651611E-001
2,680496161465029E+003	4,727326035499573E-001
2,636983077102830E+003	4,749232232570648E-001
2,737916104764370E+003	4,749766290187836E-001
2,562829408360158E+003	4,749728143215179E-001
2,750027939843246E+003	4,749422967433929E-001
2,559799274833551E+003	4,749728441238403E-001
2,747184415388925E+003	4,749308526515961E-001
2,569804248247068E+003	4,748965203762054E-001
2,721756452366575E+003	4,748964905738831E-001
2,602630510316833E+003	4,749689996242523E-001
2,692794755838288E+003	4,749422967433929E-001
2,641463336244753E+003	4,749194085597992E-001
2,642341433388322E+003	4,749346673488617E-001
2,685473335826177E+003	4,749690294265747E-001
2,605979365478367E+003	4,749041497707367E-001
2,723901277547706E+003	4,749422967433929E-001
2,575275967434223E+003	4,749881029129028E-001
2,747124158098796E+003	4,749346673488617E-001
2,570464217813431E+003	4,749308526515961E-001
2,759539368194473E+003	4,749575555324554E-001
2,565748242391393E+003	4,749346673488617E-001
2,743385946322960E+003	4,749346375465393E-001
2,589728257328932E+003	4,749385118484497E-001
2,711876246105607E+003	4,749346375465393E-001
2,625719626667322E+003	4,749613702297211E-001
2,664714302087983E+003	4,749079644680023E-001
2,671029332982066E+003	4,749155938625336E-001
2,633320712948795E+003	4,749461114406586E-001
2,712166561534684E+003	4,749804735183716E-001
2,590280584770524E+003	4,749117493629456E-001
2,743375436593381E+003	4,749461114406586E-001
2,570958815572704E+003	4,749689996242523E-001
2,760557363725082E+003	4,748888611793518E-001
2,565055006040791E+003	4,749384820461273E-001
2,752925908059547E+003	4,749270379543304E-001
2,585780768478176E+003	4,748964905738831E-001
2,735256778032327E+003	4,749537408351898E-001
2,613269844668253E+003	4,749537408351898E-001
2,685963374486190E+003	4,749117791652679E-001
2,660031990893438E+003	4,749270379543304E-001
2,642372350821847E+003	4,749270081520081E-001
2,703540640156810E+003	4,749575555324554E-001
2,601263111713478E+003	4,749537706375122E-001
2,737953779643668E+003	4,749689996242523E-001
2,585046184393341E+003	4,749651849269867E-001
2,765594892881148E+003	4,749499261379242E-001
3,000088210554228E+003	4,976614713668823E-001
2,836229362155294E+003	4,999398589134216E-001
2,645288371363306E+003	4,998826086521149E-001
2,852176830251336E+003	4,999284148216248E-001
2,619632249851944E+003	4,998749792575836E-001
2,858538465477482E+003	4,998711347579956E-001
2,635614412684693E+003	4,998978674411774E-001
2,812335330122930E+003	4,999131262302399E-001
2,697344521005198E+003	4,999474883079529E-001
2,750986727195691E+003	4,998711347579956E-001
2,771017371739755E+003	4,999054968357086E-001
2,671897921785070E+003	4,998635351657867E-001
2,835066816052637E+003	4,999284148216248E-001
2,629298647267808E+003	4,999474883079529E-001
2,865528672130543E+003	4,999436736106873E-001
2,623420777424725E+003	4,999207556247711E-001
2,844870133806960E+003	4,998864233493805E-001
2,666569321944604E+003	4,998902082443237E-001
2,793517647785915E+003	4,999474585056305E-001
2,733562397052482E+003	4,999054968357086E-001
2,706079816096382E+003	4,998863935470581E-001
2,809866597710463E+003	4,999360144138336E-001
2,649418909181616E+003	4,998596906661987E-001
2,859388170363241E+003	4,999093115329742E-001
2,620718225221127E+003	4,998635053634644E-001
2,863654571023345E+003	4,998787641525269E-001
2,646965998806087E+003	4,999321997165680E-001
2,829470694246562E+003	4,998940527439117E-001
2,701849528815052E+003	4,999513030052185E-001
2,744600726132274E+003	4,998711645603180E-001
2,781497410144688E+003	4,999131262302399E-001
2,674814244052152E+003	4,998787939548492E-001
2,845617249815223E+003	4,998787939548492E-001
2,630457806151102E+003	4,999665617942810E-001
2,870307630764390E+003	4,999245703220367E-001
2,638227382176520E+003	4,999512732028961E-001
2,856311089182332E+003	4,999054968357086E-001
2,673634708522282E+003	4,998826086521149E-001
2,779607518558696E+003	4,999283850193024E-001
2,753627811719519E+003	4,999360144138336E-001
2,704283330991014E+003	4,999284148216248E-001
2,826060968419385E+003	4,999207556247711E-001
2,643988137324440E+003	4,999169409275055E-001
2,868569267427615E+003	4,998749792575836E-001
2,635362387843333E+003	4,998978674411774E-001
2,872298546315325E+003	4,999131262302399E-001
2,686120647418308E+003	4,998902380466461E-001
2,773295724356218E+003	5,226972103118896E-001
2,812390453813086E+003	5,249145627021790E-001
2,916653833541433E+003	5,249221324920654E-001
2,680173095379143E+003	5,249145627021790E-001
2,966338645776215E+003	5,249450802803040E-001
2,670530819911786E+003	5,249832272529602E-001
2,928324492787583E+003	5,248801708221436E-001
2,745233166092951E+003	5,248954892158508E-001
2,838065720586254E+003	5,249374508857727E-001
2,856107879911060E+003	5,248801708221436E-001
2,719001607710146E+003	5,248839855194092E-001
2,948995760440263E+003	5,249335765838623E-001
2,670483503777235E+003	5,248763561248779E-001
2,966582074970492E+003	5,249107480049133E-001
2,695333790708099E+003	5,249221324920654E-001
2,889229548800291E+003	5,248763561248779E-001
2,796464303322553E+003	5,248763561248779E-001
2,787240050215205E+003	5,249106884002686E-001
2,908996750760361E+003	5,248916149139404E-001
2,688773795505204E+003	5,248839855194092E-001
2,969614321232373E+003	5,248610973358154E-001
2,674740338656409E+003	5,249221324920654E-001
2,946142992989151E+003	5,248572826385498E-001
2,738982054497113E+003	5,248993039131165E-001
2,835593560191189E+003	5,248725414276123E-001
2,857281249713858E+003	5,248839855194092E-001
2,742041754329436E+003	5,248954296112061E-001
2,951702069395288E+003	5,249183177947998E-001
2,673241653490147E+003	5,248916149139404E-001
2,972499344201701E+003	5,248763561248779E-001
2,700295268511593E+003	5,248839855194092E-001
2,901299993481127E+003	5,249183773994446E-001
2,799293568133800E+003	5,249450802803040E-001
2,778082344968072E+003	5,248954296112061E-001
2,912153080627744E+003	5,249221324920654E-001
2,703185534736104E+003	5,249259471893311E-001
2,978419038730940E+003	5,249145627021790E-001
2,676115550764758E+003	5,249221920967102E-001
2,946302893035385E+003	5,248916149139404E-001
2,745158480279722E+003	5,248801708221436E-001
2,841866082606227E+003	5,248725414276123E-001
2,864134395682996E+003	5,249260067939758E-001
2,725453787460612E+003	5,248572826385498E-001
2,956298751512360E+003	5,248839855194092E-001
2,685888198988637E+003	5,248496532440186E-001
2,980408562654347E+003	5,249030590057373E-001
2,704602953130137E+003	5,248801708221436E-001
2,891289435402247E+003	5,249145627021790E-001
3,244693685483482E+003	5,477558374404907E-001
2,932814045456009E+003	5,499769449234009E-001
2,794759056583438E+003	5,499807596206665E-001
3,031035638735016E+003	5,500113368034363E-001
2,702507425032141E+003	5,499426126480103E-001
3,052754142404031E+003	5,499769449234009E-001
2,748021858002840E+003	5,499922633171082E-001
2,958973291110874E+003	5,499960184097290E-001
2,887129931865917E+003	5,500074625015259E-001
2,789523987928437E+003	5,499006509780884E-001
3,029834785201658E+003	5,499655008316040E-001
2,707694915903843E+003	5,499845743179321E-001
3,059607777746418E+003	5,499883890151978E-001
2,743630786858661E+003	5,499120950698853E-001
2,944535387246200E+003	5,499387979507446E-001
2,893209367210658E+003	5,499845743179321E-001
2,805006237218098E+003	5,499693155288696E-001
3,034145124733219E+003	5,499807596206665E-001
2,708028830071142E+003	5,499883890151978E-001
3,060318091185892E+003	5,500113368034363E-001
2,749250017402368E+003	5,500227212905884E-001
2,949416712564137E+003	5,499998331069946E-001
2,899279617009576E+003	5,499769449234009E-001
2,787486280895625E+003	5,499807596206665E-001
3,035298826441036E+003	5,499616861343384E-001
2,719065858357108E+003	5,499731302261353E-001
3,068584881800267E+003	5,499922037124634E-001
2,748668838372092E+003	5,499616861343384E-001
2,943949951134503E+003	5,499693155288696E-001
2,904678171246354E+003	5,499845743179321E-001
2,790328849659370E+003	5,500342249870300E-001
3,043386014101776E+003	5,499616861343384E-001
2,706174068546923E+003	5,499502420425415E-001
3,059226583850959E+003	5,500151515007019E-001
2,762021388367632E+003	5,499960184097290E-001
2,952968867691331E+003	5,499769449234009E-001
2,910532463717417E+003	5,499845743179321E-001
2,784080808082024E+003	5,499769449234009E-001
3,047451488868352E+003	5,500075221061707E-001
2,710703888848863E+003	5,499426126480103E-001
3,061341924367784E+003	5,499311685562134E-001
2,764723362538003E+003	5,499998331069946E-001
2,930515213451868E+003	5,500075221061707E-001
2,921803173485626E+003	5,499197244644165E-001
2,794352592675361E+003	5,500380396842957E-001
3,054575783043802E+003	5,499196648597717E-001
2,709216509246533E+003	5,499540567398071E-001
3,056906290001829E+003	5,499311685562134E-001
2,775464572915652E+003	5,499884486198425E-001
2,856597728413728E+003	5,727724432945251E-001
3,017353563695430E+003	5,749936103820801E-001
3,010643857409776E+003	5,749783515930176E-001
2,779446500304427E+003	5,749859809875488E-001
3,139507086580851E+003	5,749936103820801E-001
2,744214093342757E+003	5,749592185020447E-001
3,097787070770152E+003	5,749592781066895E-001
2,865148579345597E+003	5,750011801719666E-001
2,895035476352346E+003	5,749439597129822E-001
3,070990589663667E+003	5,749707221984863E-001
2,751014272257941E+003	5,749592185020447E-001
3,149929375919283E+003	5,750012397766113E-001
2,765370574221416E+003	5,749401450157166E-001
3,022928751805155E+003	5,749554634094238E-001
2,946160322179057E+003	5,749401450157166E-001
2,846660378801007E+003	5,749668478965759E-001
3,124018737584826E+003	5,749935507774353E-001
2,734082184789009E+003	5,749974250793457E-001
3,126439678047161E+003	5,750203132629395E-001
2,819367378767301E+003	5,749783515930176E-001
2,957341250164025E+003	5,749707221984863E-001
3,026461490661173E+003	5,749745368957520E-001
2,774566010562663E+003	5,750050544738770E-001
3,148558613342894E+003	5,750088691711426E-001
2,751481295236014E+003	5,749821662902832E-001
3,090822925887245E+003	5,749821662902832E-001
2,887575826719711E+003	5,749363303184509E-001
2,880140178774086E+003	5,749554038047791E-001
3,092136438494686E+003	5,749744772911072E-001
2,747470180066132E+003	5,749783515930176E-001
3,151036560466449E+003	5,749897360801697E-001
2,781590033674941E+003	5,749669075012207E-001
3,004772229468451E+003	5,749325752258301E-001
2,976517951227859E+003	5,749630928039551E-001
2,829718556468174E+003	5,749210715293884E-001
3,142521445356976E+003	5,749669075012207E-001
2,739106712510214E+003	5,749592781066895E-001
3,116459023117742E+003	5,749478340148926E-001
2,848533381857900E+003	5,750088691711426E-001
2,931627749188294E+003	5,749974250793457E-001
3,059974303038754E+003	5,750012397766113E-001
2,762409978222996E+003	5,749745368957520E-001
3,155287199353055E+003	5,749707221984863E-001
2,765804325717469E+003	5,749821662902832E-001
3,067295677881024E+003	5,749974250793457E-001
2,927362285825757E+003	5,749859809875488E-001
2,851934611570099E+003	5,749515891075134E-001
3,120399955276698E+003	5,749515891075134E-001
2,743148582175529E+003	5,749248862266541E-001
3,142878580202653E+003	5,749363303184509E-001
3,347219322839122E+003	5,976859927177429E-001
2,900208564954582E+003	5,999568104743958E-001
2,989027273844744E+003	5,998919606208801E-001
3,100486753528202E+003	5,999262928962708E-001
2,803744995061301E+003	5,999071598052979E-001
3,227603914307595E+003	5,999110341072083E-001
2,787569393655157E+003	5,999071598052979E-001
3,085032690788024E+003	5,999758839607239E-001
3,003406441792385E+003	5,999109745025635E-001
2,856802621753237E+003	5,999606251716614E-001
3,207227140413211E+003	5,999262928962708E-001
2,761001729006343E+003	5,999071598052979E-001
3,164495583549500E+003	5,999377369880676E-001
2,900145209595605E+003	5,999109745025635E-001
2,960578000126652E+003	5,999568104743958E-001
3,146920607114815E+003	5,999110341072083E-001
2,772547769945528E+003	5,999644398689270E-001
3,214830171458279E+003	5,999835133552551E-001
2,821048159547411E+003	5,999835133552551E-001
3,040601623063510E+003	5,999796986579895E-001
3,061056355104868E+003	5,999301075935364E-001
2,814841535439612E+003	5,999377369880676E-001
3,221899154758636E+003	5,999339222908020E-001
2,781437110426597E+003	6,000064015388489E-001
3,141406527142336E+003	5,999682545661926E-001
2,956860866418008E+003	5,999110341072083E-001
2,894770697280239E+003	5,999606251716614E-001
3,189796140192867E+003	5,999262928962708E-001
2,766677039958429E+003	5,999186635017395E-001
3,198804358023941E+003	5,999644398689270E-001
2,868170834663432E+003	5,999644398689270E-001
2,979243452836447E+003	5,999415516853333E-001
3,118184965951441E+003	5,999034047126770E-001
2,804163249717383E+003	5,999568104743958E-001
3,235657322343237E+003	5,999377369880676E-001
2,799465969325022E+003	5,999529957771301E-001
3,073579233887141E+003	5,999300479888916E-001
3,030177092635861E+003	5,998995304107666E-001
2,846345301959013E+003	5,999453663825989E-001
3,222251633887138E+003	5,999262928962708E-001
2,767149553914030E+003	5,999644398689270E-001
3,153079286226381E+003	5,999606251716614E-001
2,929419102576305E+003	5,999644398689270E-001
2,937630375424859E+003	5,999339222908020E-001
3,173228901113884E+003	5,999682545661926E-001
2,770602410525170E+003	6,000064015388489E-001
3,210313679383883E+003	5,999338626861572E-001
2,846219463011900E+003	5,999339222908020E-001
3,016199358680708E+003	5,999415516853333E-001
3,097278140553622E+003	5,999262928962708E-001
2,723620534414856E+003	5,999568104743958E-001
3,043341629615651E+003	6,227484345436096E-001
3,232074414798893E+003	6,249810457229614E-001
2,995202495704047E+003	6,249047517776489E-001
2,942098946489725E+003	6,249887347221375E-001
3,252380480950935E+003	6,249810457229614E-001
2,784034357627277E+003	6,249772906303406E-001
3,232244174852834E+003	6,249390840530396E-001
2,928381242538682E+003	6,249696016311646E-001
2,983703857458516E+003	6,249505281448364E-001
3,214962610164890E+003	6,249200105667114E-001
2,790577792807684E+003	6,249314546585083E-001
3,264218467400929E+003	6,249543428421021E-001
2,874230963148747E+003	6,249352693557739E-001
3,057388702339630E+003	6,249085664749146E-001
3,160387128023636E+003	6,249772310256958E-001
2,815435900933212E+003	6,250116229057312E-001
3,283890554134318E+003	6,249238252639771E-001
2,833550788511179E+003	6,249276399612427E-001
3,102726091754402E+003	6,249696016311646E-001
3,103808435847508E+003	6,249734163284302E-001
2,843600477404943E+003	6,249085664749146E-001
3,286431022155183E+003	6,249543428421021E-001
2,815052985273826E+003	6,249161958694458E-001
3,171443659803942E+003	6,249200105667114E-001
3,035463581240650E+003	6,249619722366333E-001
2,892047170632688E+003	6,249161958694458E-001
3,277178531721420E+003	6,249619722366333E-001
2,792811559978331E+003	6,249505281448364E-001
3,207338017050458E+003	6,249849200248718E-001
2,979983630417547E+003	6,249543428421021E-001
2,936693980070720E+003	6,248933076858521E-001
3,245223071966360E+003	6,249428987503052E-001
2,797670751373766E+003	6,249619722366333E-001
3,259583576493118E+003	6,249161958694458E-001
2,916845617715839E+003	6,248856186866760E-001
2,994985139305184E+003	6,249085664749146E-001
3,209728937409382E+003	6,249085664749146E-001
2,800207082700932E+003	6,249352693557739E-001
3,277745242132573E+003	6,249963045120239E-001
2,871266471775470E+003	6,249390840530396E-001
3,047099866109464E+003	6,249123811721802E-001
3,161645533829096E+003	6,248971223831177E-001
2,834755500761185E+003	6,249467134475708E-001
3,298988587527694E+003	6,249581575393677E-001
2,833566296858921E+003	6,248894929885864E-001
3,105649906579642E+003	6,249009370803833E-001
3,110102661244919E+003	6,249390840530396E-001
2,853156523115574E+003	6,249581575393677E-001
3,296759487794654E+003	6,249658465385437E-001
2,810678285580372E+003	6,249581575393677E-001
3,152027788733023E+003	6,249200105667114E-001
3,263902893762023E+003	6,249085664749146E-001
3,249461019588290E+003	6,478452682495117E-001
2,872369400304506E+003	6,499366760253906E-001
3,235251069261471E+003	6,498603224754334E-001
3,062976074009323E+003	6,499366760253906E-001
2,922467339167375E+003	6,499137878417969E-001
3,330681765500364E+003	6,498985290527344E-001
2,815109940885950E+003	6,498488783836365E-001
3,237408084311422E+003	6,498832702636719E-001
3,043139933798880E+003	6,499252319335938E-001
2,937024496303070E+003	6,498908400535584E-001
3,323078255811482E+003	6,498641371726990E-001
2,821043391804517E+003	6,498870849609375E-001
3,267191213718134E+003	6,498336195945740E-001
3,015408112123585E+003	6,499213576316834E-001
2,962887081697619E+003	6,498832106590271E-001
3,317466456022346E+003	6,498908996582031E-001
2,812868827467735E+003	6,498450636863709E-001
3,272195966687751E+003	6,499099731445313E-001
3,000796252564302E+003	6,498793959617615E-001
2,975040236288650E+003	6,499557495117188E-001
3,303468218755809E+003	6,499328017234802E-001
2,822416173358207E+003	6,499175429344177E-001
3,299148558327901E+003	6,499061584472656E-001
2,974099390280113E+003	6,499099731445313E-001
2,997825718269248E+003	6,499557495117188E-001
3,296090509163357E+003	6,498984694480896E-001
2,814039903558857E+003	6,498793959617615E-001
3,300165456156175E+003	6,499252319335938E-001
2,960964998377827E+003	6,499137878417969E-001
3,011494527819730E+003	6,499366760253906E-001
3,281353543602898E+003	6,499366760253906E-001
2,825130602847463E+003	6,499175429344177E-001
3,321053800057598E+003	6,498984694480896E-001
2,941208233624469E+003	6,498755812644959E-001
3,035305151708285E+003	6,498946547508240E-001
3,274705036604832E+003	6,499366760253906E-001
2,822954220801073E+003	6,498947143554688E-001
3,323361134684504E+003	6,499214172363281E-001
2,933236021654964E+003	6,499557495117188E-001
3,046794401384943E+003	6,499023437500000E-001
3,260949868843932E+003	6,499404907226563E-001
2,839744971894489E+003	6,499022841453552E-001
3,340514982945585E+003	6,499290466308594E-001
2,916020514490944E+003	6,499328613281250E-001
3,065035433513854E+003	6,499671936035156E-001
3,252947443445903E+003	6,499251723289490E-001
2,830941974722296E+003	6,498946547508240E-001
3,337714221897558E+003	6,499518752098084E-001
2,910556875649335E+003	6,498717665672302E-001
3,074503536077202E+003	6,499060988426209E-001
3,237606479853961E+003	6,499099135398865E-001
2,845067762792895E+003	6,499289870262146E-001
3,129266251718722E+003	6,499023437500000E-001
3,326317710982979E+003	6,727359294891357E-001
3,443866970771275E+003	6,748808026313782E-001
2,923176879550636E+003	6,749036908149719E-001
3,117471136208429E+003	6,749151349067688E-001
3,284915637771244E+003	6,748998761177063E-001
2,851847474406043E+003	6,749227643013000E-001
3,380853219832116E+003	6,748884320259094E-001
2,939127097594911E+003	6,748808026313782E-001
3,093414011109055E+003	6,749189496040344E-001
3,301945097589710E+003	6,748960614204407E-001
2,860105178476392E+003	6,748769879341125E-001
3,382702068103652E+003	6,749418973922729E-001
2,952803230768471E+003	6,748922467231750E-001
3,078230539248542E+003	6,749075055122375E-001
3,323027875783563E+003	6,749189496040344E-001
2,841604964477160E+003	6,748655438423157E-001
3,361354851418799E+003	6,748922467231750E-001
2,980757927331658E+003	6,748731732368469E-001
3,052617535579412E+003	6,749303936958313E-001
3,333886591834630E+003	6,749342083930969E-001
2,845606393854675E+003	6,748998761177063E-001
3,360480052876635E+003	6,749380230903625E-001
2,997696792666851E+003	6,749036908149719E-001
3,037077563860347E+003	6,749113202095032E-001
3,352723676501073E+003	6,749342083930969E-001
2,835734833769568E+003	6,748998761177063E-001
3,333792041774371E+003	6,749342083930969E-001
3,025936173638269E+003	6,748846173286438E-001
3,011185210624808E+003	6,749418377876282E-001
3,366659055655672E+003	6,748808026313782E-001
2,847893225394211E+003	6,749036908149719E-001
3,329995978531909E+003	6,748922467231750E-001
3,045386024030060E+003	6,749494671821594E-001
2,996293853585247E+003	6,749151349067688E-001
3,381668568689368E+003	6,749380230903625E-001
2,840020967255858E+003	6,749609112739563E-001
3,299908703889419E+003	6,748884320259094E-001
3,082324079063348E+003	6,749303936958313E-001
2,970354362472251E+003	6,749495267868042E-001
3,387601535242226E+003	6,748808026313782E-001
2,849099008899919E+003	6,749227643013000E-001
3,294429283962210E+003	6,749456524848938E-001
3,105226032656324E+003	6,748998761177063E-001
2,954228063193368E+003	6,748884320259094E-001
3,397694938530209E+003	6,749303936958313E-001
2,848673614923027E+003	6,748884320259094E-001
3,259003931919646E+003	6,749418377876282E-001
3,138791295388658E+003	6,749113202095032E-001
2,929354340321400E+003	6,749227643013000E-001
3,402656850268952E+003	6,748960614204407E-001
2,865041198183889E+003	6,748922467231750E-001
3,250547120581498E+003	6,749762296676636E-001
3,253986539871619E+003	6,748846173286438E-001
3,067370927097682E+003	6,978518366813660E-001
2,912382175371783E+003	6,999622583389282E-001
3,418017593379565E+003	7,000119090080261E-001
2,991451090040023E+003	7,000004649162292E-001
3,103441039625170E+003	6,999737024307251E-001
3,386748867700737E+003	7,000119090080261E-001
2,854803338755579E+003	7,000080943107605E-001
3,377545462134188E+003	6,999546289443970E-001
3,051110429798666E+003	6,999813914299011E-001
3,063070030937282E+003	6,999928355216980E-001
3,425278299728860E+003	6,999890208244324E-001
2,854795941673868E+003	6,999928951263428E-001
3,332686606001243E+003	6,999928355216980E-001
3,121908713534795E+003	6,999851465225220E-001
2,991044921678557E+003	7,000157237052917E-001
3,448304717084115E+003	6,999890208244324E-001
2,865819086155609E+003	7,000004649162292E-001
3,280986800709383E+003	6,999431848526001E-001
3,191502346716634E+003	7,000271677970886E-001
2,956194956225460E+003	6,999852061271667E-001
3,460662039951701E+003	7,000119686126709E-001
2,891791909093831E+003	6,999585032463074E-001
3,230026917531339E+003	6,999508738517761E-001
3,265073313335406E+003	7,000080943107605E-001
2,904322721237123E+003	6,999623179435730E-001
3,449349877046013E+003	7,000195384025574E-001
2,932053971095056E+003	6,999508738517761E-001
3,166480926760689E+003	7,000271677970886E-001
3,324762529390369E+003	6,999623179435730E-001
2,890194505352191E+003	7,000004649162292E-001
3,438622415494738E+003	6,999966502189636E-001
2,978580507866984E+003	7,000080943107605E-001
3,110330129871762E+003	6,999813914299011E-001
3,382355187296434E+003	6,999623179435730E-001
2,860615904540394E+003	6,999660730361938E-001
3,391157038193060E+003	7,000119090080261E-001
3,049689563909652E+003	6,999813914299011E-001
3,045326138877054E+003	6,999394297599792E-001
3,419979765399269E+003	6,999775767326355E-001
2,865268117265474E+003	6,999508738517761E-001
3,356809115581876E+003	6,999890208244324E-001
3,116461222581364E+003	6,999393701553345E-001
2,995456447457550E+003	6,999431848526001E-001
3,447909658666986E+003	7,000080943107605E-001
2,870784878131381E+003	6,999088525772095E-001
3,290326325400222E+003	6,999928355216980E-001
3,197307672199932E+003	7,000119090080261E-001
2,938244220588278E+003	6,999584436416626E-001
3,454719412493598E+003	6,999432444572449E-001
2,904386981745538E+003	6,999737620353699E-001
3,250165304406257E+003	7,000195384025574E-001
3,263859001038285E+003	6,999585032463074E-001
2,903483288758944E+003	7,000500559806824E-001
3,302513511162884E+003	6,999775767326355E-001
