C:\Users\davide\Experimental Activities\NIPS Overpotential curves - Exp. - Model\NIPS FTFF channels\Test channels\25.03.25\0_ch\PEIS_PCGA\NIPS_0ch_470um_10.3mLmin_02_PCGA_C03.mpr
<I>/mA	Ewe/V
0,000000000000000E+000	9,157609893009067E-004
0,000000000000000E+000	-3,642887531896122E-005
0,000000000000000E+000	-1,166232104878873E-004
0,000000000000000E+000	-1,280795258935541E-004
0,000000000000000E+000	-1,815425057429820E-004
0,000000000000000E+000	-1,624486030777916E-004
0,000000000000000E+000	-1,242607977474108E-004
0,000000000000000E+000	-1,586298749316484E-004
0,000000000000000E+000	-1,739049184834585E-004
0,000000000000000E+000	-1,318983850069344E-004
4,333901991655204E-004	-5,878516276425216E-006
2,261577893547326E+000	5,140304710948840E-005
1,956212570017452E+000	5,904078352614306E-005
2,346693021928936E+002	2,196356654167175E-002
1,615905608104572E+002	2,509114891290665E-002
1,600060583060211E+002	2,510642260313034E-002
1,594120823516110E+002	2,507969364523888E-002
3,968424172516452E+002	4,751884937286377E-002
3,197208172458037E+002	5,012325942516327E-002
3,156620453099563E+002	5,013853311538696E-002
3,149990780461821E+002	5,014616996049881E-002
3,144346822776236E+002	5,013471096754074E-002
3,132895260959350E+002	5,014616996049881E-002
3,122045061697324E+002	5,013471469283104E-002
5,475780777978296E+002	7,266934216022491E-002
4,728680605967740E+002	7,515918463468552E-002
4,676237181275736E+002	7,518209517002106E-002
4,670861625171918E+002	7,517064362764359E-002
4,667881361008918E+002	7,509426027536392E-002
4,665367231366357E+002	7,515918463468552E-002
4,660395424395352E+002	7,509426772594452E-002
4,654073875540769E+002	7,512862980365753E-002
4,643029172648619E+002	7,513627409934998E-002
6,995323052693286E+002	9,763271361589432E-002
6,241817448156122E+002	1,001263707876205E-001
6,182668764957441E+002	1,001340076327324E-001
6,177223688240164E+002	1,001340150833130E-001
6,176405789981180E+002	1,001149192452431E-001
6,170266142582755E+002	1,001454666256905E-001
6,162849253250704E+002	1,002103909850121E-001
6,162039320387348E+002	1,001721918582916E-001
6,163180812919667E+002	1,001340076327324E-001
6,168632929092901E+002	1,001760214567184E-001
6,161458532691839E+002	1,001340076327324E-001
6,165476495682726E+002	1,001072749495506E-001
8,470571503047136E+002	1,227373778820038E-001
7,757226194350412E+002	1,251737475395203E-001
7,691082577629671E+002	1,251432001590729E-001
7,689319916941936E+002	1,251470297574997E-001
7,688077367930014E+002	1,251393854618073E-001
7,681670059567725E+002	1,251737475395203E-001
7,678303387676204E+002	1,251737624406815E-001
7,671581805940998E+002	1,251890361309052E-001
7,664453486865975E+002	1,251432001590729E-001
7,660876316340001E+002	1,251699328422546E-001
7,665567735814720E+002	1,251470297574997E-001
7,678630253569575E+002	1,251584738492966E-001
7,680293146312542E+002	1,252157688140869E-001
7,677059880578998E+002	1,251317411661148E-001
9,972525276341240E+002	1,477771252393723E-001
9,246554478855488E+002	1,501562148332596E-001
9,154402416238790E+002	1,501791328191757E-001
9,141936166039284E+002	1,501524001359940E-001
9,130875783851769E+002	1,501791328191757E-001
9,125415470090651E+002	1,501600444316864E-001
9,114524235703693E+002	1,501982212066650E-001
9,109904520832898E+002	1,501714885234833E-001
9,116366967438106E+002	1,501714885234833E-001
9,120113052973728E+002	1,501905918121338E-001
9,116440292775727E+002	1,501638591289520E-001
9,124968646431532E+002	1,501791328191757E-001
9,130030573623659E+002	1,501944065093994E-001
9,125678230622045E+002	1,502440422773361E-001
9,121014945331815E+002	1,502440571784973E-001
9,127048844300002E+002	1,502096951007843E-001
9,132501223925000E+002	1,501371264457703E-001
1,140884428235227E+003	1,727901399135590E-001
1,068841855868757E+003	1,750852316617966E-001
1,060229748933276E+003	1,750890463590622E-001
1,060397205660702E+003	1,750966757535934E-001
1,058640939173017E+003	1,751425117254257E-001
1,057690619502130E+003	1,750546842813492E-001
1,056879143404195E+003	1,750890463590622E-001
1,055514082630825E+003	1,750928461551666E-001
1,055611583527074E+003	1,751004904508591E-001
1,058435123385739E+003	1,750852316617966E-001
1,060096346051235E+003	1,750814020633698E-001
1,058522905140418E+003	1,750814020633698E-001
1,054797536188883E+003	1,750584989786148E-001
1,050707301947974E+003	1,750775873661041E-001
1,048484159664283E+003	1,750890314579010E-001
1,046980915679149E+003	1,750775873661041E-001
1,044650569177948E+003	1,750584989786148E-001
1,041052509431865E+003	1,750623136758804E-001
1,037828875772830E+003	1,750699430704117E-001
1,259472932207588E+003	1,977267712354660E-001
1,189427542866544E+003	2,000447809696198E-001
1,175878332014946E+003	2,000295072793961E-001
1,172712710034798E+003	2,000409662723541E-001
1,171474340299435E+003	2,000676840543747E-001
1,168665696069995E+003	2,000829577445984E-001
1,164666768607362E+003	2,001020610332489E-001
1,163318987802023E+003	2,001135051250458E-001
1,162165036095085E+003	2,000562250614166E-001
1,160940515161685E+003	2,000676840543747E-001
1,161436747413067E+003	2,000638842582703E-001
1,160432371088821E+003	2,000676840543747E-001
1,161378126995129E+003	2,000600546598434E-001
1,162944558240358E+003	2,000600546598434E-001
1,162978153350874E+003	2,000600546598434E-001
1,164473103507948E+003	2,000638842582703E-001
1,164325923511271E+003	2,000791430473328E-001
1,164450085411837E+003	2,001249641180038E-001
1,165163897601739E+003	2,000982314348221E-001
1,164477182621238E+003	2,000791430473328E-001
1,165036280051217E+003	2,000524103641510E-001
1,394652256911567E+003	2,227665185928345E-001
1,316113947339322E+003	2,250768691301346E-001
1,304604983098475E+003	2,250806987285614E-001
1,303834863139833E+003	2,250615954399109E-001
1,302592875505164E+003	2,251265197992325E-001
1,301787479322580E+003	2,250921428203583E-001
1,302645612920005E+003	2,250806987285614E-001
1,305325428114860E+003	2,250539660453796E-001
1,307365180028910E+003	2,250921577215195E-001
1,308095724319824E+003	2,251074314117432E-001
1,307684262728115E+003	2,250959724187851E-001
1,304980893201764E+003	2,250921428203583E-001
1,302608451359449E+003	2,251150757074356E-001
1,301848196592604E+003	2,250883281230927E-001
1,301675556293758E+003	2,251036167144775E-001
1,302242184175441E+003	2,251112461090088E-001
1,303107017889634E+003	2,251036018133163E-001
1,302803060085708E+003	2,250997871160507E-001
1,301934522222174E+003	2,250730544328690E-001
1,300648332093107E+003	2,250997871160507E-001
1,300037085616136E+003	2,250768691301346E-001
1,300091230369231E+003	2,250501513481140E-001
1,299290592859236E+003	2,251265197992325E-001
1,515386390820943E+003	2,478138953447342E-001
1,447865892828431E+003	2,500746250152588E-001
1,436558116546334E+003	2,500898838043213E-001
1,439290548010206E+003	2,501166164875031E-001
1,440453917076243E+003	2,500746250152588E-001
1,438874822164914E+003	2,500631511211395E-001
1,435084226991721E+003	2,501128017902374E-001
1,433172156103679E+003	2,500555217266083E-001
1,433667571849265E+003	2,500555217266083E-001
1,434918652732622E+003	2,500860691070557E-001
1,435501869576913E+003	2,501280903816223E-001
1,437066683380562E+003	2,501128017902374E-001
1,438525591175828E+003	2,501510083675385E-001
1,439284713462919E+003	2,500898838043213E-001
1,441842378167067E+003	2,501051723957062E-001
1,443279068210166E+003	2,500860691070557E-001
1,441914917356238E+003	2,501128017902374E-001
1,441199905130875E+003	2,501204311847687E-001
1,442487616353319E+003	2,500517070293427E-001
1,443443547252836E+003	2,501357197761536E-001
1,443501480713358E+003	2,500631511211395E-001
1,445437777166051E+003	2,501051723957062E-001
1,448460478679022E+003	2,500478923320770E-001
1,450073303992624E+003	2,500898838043213E-001
1,449767391884366E+003	2,501586377620697E-001
1,452111911807048E+003	2,501204311847687E-001
1,672291057870626E+003	2,728803753852844E-001
1,594549725342470E+003	2,751067280769348E-001
1,573811545329814E+003	2,751563787460327E-001
1,573961331967754E+003	2,751220166683197E-001
1,573463506558711E+003	2,750876545906067E-001
1,575452162745804E+003	2,751678228378296E-001
1,571583931591289E+003	2,751067280769348E-001
1,569828276998502E+003	2,750876545906067E-001
1,566073210912097E+003	2,750952839851379E-001
1,565978841035058E+003	2,750799953937531E-001
1,563359537899936E+003	2,751067280769348E-001
1,565262117709306E+003	2,751487493515015E-001
1,565373654311988E+003	2,750799953937531E-001
1,569104827468120E+003	2,751220166683197E-001
1,568572379666985E+003	2,751105427742004E-001
1,570040247064123E+003	2,751105427742004E-001
1,569024046507544E+003	2,751220166683197E-001
1,569308331942533E+003	2,751220166683197E-001
1,566787071888526E+003	2,750494480133057E-001
1,568951188679041E+003	2,751143574714661E-001
1,568943292919101E+003	2,751334607601166E-001
1,570800662836860E+003	2,750799953937531E-001
1,569788629139058E+003	2,750799953937531E-001
1,570581518595870E+003	2,751029133796692E-001
1,570027647248488E+003	2,751182019710541E-001
1,572225731733831E+003	2,750914692878723E-001
1,571580599201694E+003	2,751029133796692E-001
1,577058254568297E+003	2,750838398933411E-001
1,785055465016169E+003	2,979277670383453E-001
1,712868096924017E+003	3,001120984554291E-001
1,693616340284972E+003	3,001388311386108E-001
1,690945336228667E+003	3,001044690608978E-001
1,686617512445173E+003	3,000853657722473E-001
1,685150764026377E+003	3,000968396663666E-001
1,686464718927284E+003	3,000968098640442E-001
1,685543259174286E+003	3,001312017440796E-001
1,689592901594632E+003	3,001044690608978E-001
1,693405350965790E+003	3,001235723495483E-001
1,691761566083210E+003	3,001464903354645E-001
1,691338755502935E+003	3,001312017440796E-001
1,690134095656284E+003	3,001120984554291E-001
1,686653489245541E+003	3,000891804695129E-001
1,685485454399374E+003	3,001388311386108E-001
1,687185748634484E+003	3,000891804695129E-001
1,685224383740062E+003	3,001312017440796E-001
1,683611309461605E+003	3,000853657722473E-001
1,683723382273144E+003	3,000968396663666E-001
1,679138235668658E+003	3,001388311386108E-001
1,678055103748637E+003	3,000968396663666E-001
1,681025252425383E+003	3,000739216804504E-001
1,680617339878504E+003	3,001120984554291E-001
1,681253674098037E+003	3,001082837581635E-001
1,682872267438697E+003	3,001159131526947E-001
1,682384758156645E+003	3,001159131526947E-001
1,681482867164338E+003	3,001197576522827E-001
1,682141129244636E+003	3,000929951667786E-001
1,679461099992555E+003	3,000777363777161E-001
1,674531271062878E+003	3,001388311386108E-001
1,891804247009745E+003	3,229025900363922E-001
1,814512394501763E+003	3,251251280307770E-001
1,795959722052946E+003	3,251213133335114E-001
1,794171190749468E+003	3,251098394393921E-001
1,795051663535617E+003	3,250640332698822E-001
1,794827795975978E+003	3,251366019248962E-001
1,796013670799975E+003	3,251556754112244E-001
1,797454403785675E+003	3,251785933971405E-001
1,798043530618095E+003	3,251022100448608E-001
1,797868911470133E+003	3,251251280307770E-001
1,796699376413893E+003	3,250869512557983E-001
1,797753293894541E+003	3,251404166221619E-001
1,798889381191967E+003	3,250716626644135E-001
1,800411794921959E+003	3,251251280307770E-001
1,799605659929943E+003	3,251213133335114E-001
1,801450812787338E+003	3,251404166221619E-001
1,802283761868030E+003	3,251518607139587E-001
1,803338295201417E+003	3,251251280307770E-001
1,804268836406789E+003	3,251366019248962E-001
1,804581468566188E+003	3,250945806503296E-001
1,803749952142403E+003	3,251174986362457E-001
1,802835372300717E+003	3,250869214534760E-001
1,803307564592577E+003	3,251251280307770E-001
1,802699242237655E+003	3,251212835311890E-001
1,803206036564216E+003	3,251098394393921E-001
1,800778946895814E+003	3,250678479671478E-001
1,797572894788569E+003	3,250945806503296E-001
1,792740921815041E+003	3,251327574253082E-001
1,792455658843284E+003	3,251213133335114E-001
1,794582591027620E+003	3,250678181648254E-001
1,796369385119191E+003	3,251060247421265E-001
2,012193532277597E+003	3,479499816894531E-001
1,926494876408167E+003	3,501075804233551E-001
1,903444570935461E+003	3,501572608947754E-001
1,903339742503424E+003	3,501266837120056E-001
1,903227378158932E+003	3,501534163951874E-001
1,903092363272543E+003	3,501877784729004E-001
1,901909606582462E+003	3,501572310924530E-001
1,902654627035792E+003	3,501343131065369E-001
1,901646206438144E+003	3,501419425010681E-001
1,902617711021712E+003	3,501381278038025E-001
1,902399248194924E+003	3,501572310924530E-001
1,904155681502035E+003	3,501648604869843E-001
1,905024489882572E+003	3,501724898815155E-001
1,907448910658524E+003	3,501304984092712E-001
1,908415092812358E+003	3,501228690147400E-001
1,910934693098904E+003	3,501534163951874E-001
1,910358450531340E+003	3,501343131065369E-001
1,910404143740577E+003	3,501687049865723E-001
1,908410478083335E+003	3,501648604869843E-001
1,908248609267346E+003	3,501763045787811E-001
1,907890653378410E+003	3,501113951206207E-001
1,911654672797125E+003	3,501725196838379E-001
1,914647517251430E+003	3,501610457897186E-001
1,916670527642886E+003	3,501190543174744E-001
1,914959964147442E+003	3,501419425010681E-001
1,914534026783395E+003	3,501419723033905E-001
1,911995302649132E+003	3,500884771347046E-001
1,909901932130072E+003	3,501304984092712E-001
1,908921755535315E+003	3,501954078674316E-001
1,909378410787824E+003	3,501114249229431E-001
1,908366244680636E+003	3,501724898815155E-001
1,908189578604028E+003	3,501266837120056E-001
1,908162488834703E+003	3,501763343811035E-001
2,110397758391257E+003	3,730050027370453E-001
2,032141208633325E+003	3,751855194568634E-001
2,006577708851745E+003	3,751358687877655E-001
2,007205121562584E+003	3,751587867736816E-001
2,006031135485850E+003	3,751435279846191E-001
2,007466372455582E+003	3,751587867736816E-001
2,008003744476616E+003	3,750785887241364E-001
2,010330397999321E+003	3,751282393932343E-001
2,010929214047079E+003	3,751702606678009E-001
2,013399832228303E+003	3,751664459705353E-001
2,013980110559393E+003	3,751778900623322E-001
2,015785607612863E+003	3,751244246959686E-001
2,014075903525537E+003	3,751587867736816E-001
2,011931627659789E+003	3,751397132873535E-001
2,008012299854875E+003	3,751549720764160E-001
2,008963219031145E+003	3,751282393932343E-001
2,009896244530313E+003	3,751282393932343E-001
2,011709717822945E+003	3,751702308654785E-001
2,010455581912302E+003	3,751129508018494E-001
2,011264426436214E+003	3,751397132873535E-001
2,009162975467771E+003	3,751511275768280E-001
2,010098504875252E+003	3,751549720764160E-001
2,011431954755303E+003	3,751358687877655E-001
2,013061534347881E+003	3,751702308654785E-001
2,009797498158606E+003	3,751702308654785E-001
2,007999829485814E+003	3,751664459705353E-001
2,004856598808434E+003	3,751740753650665E-001
2,004355816962951E+003	3,750862181186676E-001
2,005000831829879E+003	3,751587867736816E-001
2,007947753303474E+003	3,751320540904999E-001
2,009257755710905E+003	3,751702308654785E-001
2,011125537477495E+003	3,751664459705353E-001
2,011502295435545E+003	3,751206099987030E-001
2,010806289648369E+003	3,751282393932343E-001
2,011847021972874E+003	3,751167953014374E-001
2,235883113123783E+003	3,980332911014557E-001
2,127566133571997E+003	4,001259803771973E-001
2,102032603740749E+003	4,001756012439728E-001
2,101666510370974E+003	4,001603424549103E-001
2,104349973005508E+003	4,001412689685822E-001
2,103032919303792E+003	4,000992476940155E-001
2,102878334190640E+003	4,001679718494415E-001
2,103258992501494E+003	4,001488983631134E-001
2,104061923968785E+003	4,001450538635254E-001
2,101991294883684E+003	4,001221358776093E-001
2,099759031975044E+003	4,001450836658478E-001
2,100376310911212E+003	4,001450538635254E-001
2,100089551781780E+003	4,001297950744629E-001
2,102998584517678E+003	4,001259803771973E-001
2,102898613948928E+003	4,001527130603790E-001
2,104099917170332E+003	4,001374244689941E-001
2,103537784876586E+003	4,001221656799316E-001
2,105375196700962E+003	4,001412689685822E-001
2,103600940674476E+003	4,001450538635254E-001
2,104886132282310E+003	4,001145064830780E-001
2,105119435661592E+003	4,001756310462952E-001
2,105830237341698E+003	4,001603722572327E-001
2,104370861385650E+003	4,001412391662598E-001
2,104883132995244E+003	4,001450538635254E-001
2,105329546857430E+003	4,001603722572327E-001
2,103413404325364E+003	4,000954329967499E-001
2,102863477491685E+003	4,001488983631134E-001
2,103515532989996E+003	4,001832604408264E-001
2,107614775099718E+003	4,001221358776093E-001
2,107054750329716E+003	4,001947045326233E-001
2,107904093806068E+003	4,001450836658478E-001
2,106284988287140E+003	4,001030623912811E-001
2,106845428141555E+003	4,001450538635254E-001
2,106499688060730E+003	4,000877737998962E-001
2,109125725239742E+003	4,001679718494415E-001
2,108392200581347E+003	4,001374244689941E-001
2,097166286664197E+003	4,001297950744629E-001
2,301480526890288E+003	4,230119287967682E-001
2,214707561842677E+003	4,251427948474884E-001
2,172389954116228E+003	4,251771867275238E-001
2,168762315529732E+003	4,251657128334045E-001
2,166786545062752E+003	4,251389801502228E-001
2,159672508044675E+003	4,251580834388733E-001
2,153416531614198E+003	4,251542389392853E-001
2,149104678167484E+003	4,251275360584259E-001
2,153663547712026E+003	4,251313507556915E-001
2,158910999838999E+003	4,251580536365509E-001
2,167276569256655E+003	4,251886308193207E-001
2,169817547631241E+003	4,251427948474884E-001
2,170104294216279E+003	4,252153635025024E-001
2,167504707830359E+003	4,252077341079712E-001
2,169127549796301E+003	4,251771569252014E-001
2,173501952671725E+003	4,251924455165863E-001
2,174643817016336E+003	4,251810312271118E-001
2,175685378587742E+003	4,251771867275238E-001
2,171654359392608E+003	4,251236915588379E-001
2,173066377270825E+003	4,251542389392853E-001
2,172322744743956E+003	4,251580834388733E-001
2,171113138476107E+003	4,251733422279358E-001
2,165917892759988E+003	4,251657128334045E-001
2,162662896019719E+003	4,251771569252014E-001
2,160555693795002E+003	4,251809716224670E-001
2,161780873729946E+003	4,251618981361389E-001
2,164057599711728E+003	4,251618981361389E-001
2,162331279853284E+003	4,251466095447540E-001
2,161237738186518E+003	4,251428246498108E-001
2,156644630535383E+003	4,251542687416077E-001
2,157962465170135E+003	4,251886308193207E-001
2,156013686225405E+003	4,251466095447540E-001
2,158362839472654E+003	4,251389801502228E-001
2,159704212938973E+003	4,251810014247894E-001
2,159844957067729E+003	4,251351654529572E-001
2,157179643121791E+003	4,251542687416077E-001
2,156598127711208E+003	4,251810014247894E-001
2,156680042463090E+003	4,251771569252014E-001
2,369529845015609E+003	4,480669498443604E-001
2,254119802142485E+003	4,501634538173676E-001
2,214869953449303E+003	4,501978158950806E-001
2,210991493600942E+003	4,502131044864655E-001
2,202223726676327E+003	4,501710832118988E-001
2,201946067521839E+003	4,501940011978149E-001
2,200391424466516E+003	4,502016305923462E-001
2,201703603326987E+003	4,502131044864655E-001
2,197685310926488E+003	4,501672685146332E-001
2,198454230211119E+003	4,501863420009613E-001
2,203492630502823E+003	4,502169191837311E-001
2,202016880906070E+003	4,502283930778503E-001
2,199669898986610E+003	4,501634538173676E-001
2,194758369263012E+003	4,501711130142212E-001
2,199432953523501E+003	4,501710832118988E-001
2,200272063986616E+003	4,501558244228363E-001
2,200703132661693E+003	4,502169191837311E-001
2,195884369148678E+003	4,501634538173676E-001
2,193202218893028E+003	4,502016603946686E-001
2,195113600548942E+003	4,502322077751160E-001
2,196573996320162E+003	4,502016603946686E-001
2,200517932712410E+003	4,502207338809967E-001
2,200465809479892E+003	4,502436518669128E-001
2,205054406598912E+003	4,501825571060181E-001
2,207559088575534E+003	4,502474665641785E-001
2,212036234413353E+003	4,501596391201019E-001
2,212650559049197E+003	4,501710832118988E-001
2,211882439075751E+003	4,502054750919342E-001
2,215092334265756E+003	4,501787126064301E-001
2,217077116470768E+003	4,502016603946686E-001
2,219104107457387E+003	4,501672685146332E-001
2,215118749222801E+003	4,502016305923462E-001
2,216421108512342E+003	4,501711130142212E-001
2,215718775200746E+003	4,501825571060181E-001
2,216252520839655E+003	4,501711130142212E-001
2,209188582769498E+003	4,502054750919342E-001
2,200963060775113E+003	4,501940011978149E-001
2,205290403573110E+003	4,501558244228363E-001
2,399761291091819E+003	4,731105268001556E-001
2,285128334504695E+003	4,752031862735748E-001
2,251663880920298E+003	4,751879572868347E-001
2,251728770227543E+003	4,751917421817780E-001
2,252607872362720E+003	4,751573801040649E-001
2,248687618832862E+003	4,751993715763092E-001
2,253177198146381E+003	4,751802980899811E-001
2,261372350662619E+003	4,751382768154144E-001
2,259924872995110E+003	4,751650094985962E-001
2,254645076304903E+003	4,751535654067993E-001
2,251012795340512E+003	4,751802980899811E-001
2,249668392738150E+003	4,751611948013306E-001
2,241740671962799E+003	4,751688241958618E-001
2,239783377190631E+003	4,751650094985962E-001
2,244546353861942E+003	4,751497209072113E-001
2,245034631021763E+003	4,751688539981842E-001
2,245981442112047E+003	4,751726388931274E-001
2,243681183283255E+003	4,751535654067993E-001
2,255063127566892E+003	4,751344621181488E-001
2,262427302940685E+003	4,751459360122681E-001
2,266827920848134E+003	4,751611649990082E-001
2,264473056787751E+003	4,751650094985962E-001
2,265010825516140E+003	4,751573801040649E-001
2,264674479933072E+003	4,751764833927155E-001
2,262349930424436E+003	4,751650094985962E-001
2,266071931028777E+003	4,751382768154144E-001
2,269886171436174E+003	4,751650094985962E-001
2,272754698799161E+003	4,751993715763092E-001
2,264318722197571E+003	4,751688539981842E-001
2,259037596201675E+003	4,751650094985962E-001
2,253791699416378E+003	4,751573801040649E-001
2,243576910101623E+003	4,751650094985962E-001
2,238142384029568E+003	4,751688241958618E-001
2,244769449022756E+003	4,751841127872467E-001
2,266999333885036E+003	4,751879274845123E-001
2,282051093377682E+003	4,751573801040649E-001
2,289439404599738E+003	4,751611948013306E-001
2,304232116561534E+003	4,751917421817780E-001
2,305045249224681E+003	4,752031862735748E-001
2,503751283953203E+003	4,980051517486572E-001
2,402413714269188E+003	5,000367164611816E-001
2,362440264258571E+003	5,001169443130493E-001
2,365232083020995E+003	5,001055002212524E-001
2,374406920044326E+003	5,000711083412170E-001
2,366442957573997E+003	5,001245737075806E-001
2,370249114877179E+003	5,000367760658264E-001
2,371950856996235E+003	5,001093149185181E-001
2,363154084807410E+003	5,000940561294556E-001
2,363972072663540E+003	5,001283884048462E-001
2,358710494217771E+003	5,000825524330139E-001
2,342016192012381E+003	5,000825524330139E-001
2,330943178860161E+003	5,001131296157837E-001
2,330244224708620E+003	5,000939965248108E-001
2,317009726752706E+003	5,000596642494202E-001
2,312831591233719E+003	5,000825524330139E-001
2,308946068427212E+003	5,000558495521545E-001
2,290879493911990E+003	5,000443458557129E-001
2,276642099442272E+003	5,001131296157837E-001
2,269578682311726E+003	5,000749230384827E-001
2,268858948281407E+003	5,000711083412170E-001
2,251749142440811E+003	5,000596642494202E-001
2,237608919335139E+003	5,001512765884399E-001
2,227206902701761E+003	5,000634789466858E-001
2,215943621689936E+003	5,001055002212524E-001
2,208459724849263E+003	5,000825524330139E-001
2,196867486303905E+003	5,001322031021118E-001
2,193427482051854E+003	5,000596642494202E-001
2,184346523785734E+003	5,001055002212524E-001
2,188088846918544E+003	5,001627802848816E-001
2,189081863725041E+003	5,000901818275452E-001
2,191249031308112E+003	5,000634789466858E-001
2,196462682847936E+003	5,000711083412170E-001
2,197641394640340E+003	5,001055002212524E-001
2,197874080868284E+003	5,001513361930847E-001
2,189654595558919E+003	5,000863671302795E-001
2,185579198808799E+003	5,000863671302795E-001
2,176457551964421E+003	5,000863671302795E-001
2,174087698573370E+003	5,000939965248108E-001
2,390756896333099E+003	5,230640172958374E-001
2,228860346802861E+003	5,251261591911316E-001
2,206524915948705E+003	5,250993967056274E-001
2,221457265172034E+003	5,251146554946899E-001
2,231911992686169E+003	5,251222848892212E-001
2,243175447888585E+003	5,251070261001587E-001
2,252890102208668E+003	5,251070261001587E-001
2,261120438011972E+003	5,250993967056274E-001
2,258154588506481E+003	5,250993967056274E-001
2,255183282338150E+003	5,251146554946899E-001
2,261853304025507E+003	5,251414179801941E-001
2,257939793015685E+003	5,251260995864868E-001
2,241680137855767E+003	5,250688791275024E-001
2,220340974324258E+003	5,251070261001587E-001
2,217432799936345E+003	5,250955820083618E-001
2,213992051768344E+003	5,251261591911316E-001
2,216011852324853E+003	5,250611901283264E-001
2,212891862595789E+003	5,250879526138306E-001
2,218697021146941E+003	5,250879526138306E-001
2,221605110640778E+003	5,251184701919556E-001
2,214179040562116E+003	5,250841379165649E-001
2,204852481363761E+003	5,251260995864868E-001
2,193948581975926E+003	5,250955820083618E-001
2,196573938293570E+003	5,250497460365295E-001
2,196596938807454E+003	5,250993967056274E-001
2,197388822037887E+003	5,250497460365295E-001
2,189606706700072E+003	5,251032114028931E-001
2,186035148867652E+003	5,251032114028931E-001
2,183102305660941E+003	5,251032114028931E-001
2,180362278624446E+003	5,250879526138306E-001
2,181781573753966E+003	5,251032114028931E-001
2,177909307540714E+003	5,250917673110962E-001
2,179435630602442E+003	5,251146554946899E-001
2,175473731901340E+003	5,250459313392639E-001
2,175509329646111E+003	5,250917673110962E-001
2,173416948162911E+003	5,251376032829285E-001
2,177817014112186E+003	5,251032114028931E-001
2,185478856181227E+003	5,251222848892212E-001
2,370296202456843E+003	5,480120778083801E-001
2,251491746447837E+003	5,500856637954712E-001
2,222129753627948E+003	5,501543879508972E-001
2,224792114102078E+003	5,501735210418701E-001
2,240292713636887E+003	5,501238703727722E-001
2,248155063773498E+003	5,501353144645691E-001
2,256982162328685E+003	5,500971674919128E-001
2,274817186575336E+003	5,500894784927368E-001
2,301626892912906E+003	5,501162409782410E-001
2,325529851093957E+003	5,501467585563660E-001
2,332753484933747E+003	5,501200556755066E-001
2,351516713965988E+003	5,501162409782410E-001
2,355202101003616E+003	5,501505732536316E-001
2,346032674149937E+003	5,500971674919128E-001
2,350727127317304E+003	5,501162409782410E-001
2,346076730558033E+003	5,501238703727722E-001
2,330134918530384E+003	5,501353144645691E-001
2,321558687346705E+003	5,501124262809753E-001
2,326311438648616E+003	5,501162409782410E-001
2,319768057744002E+003	5,501697063446045E-001
2,342397053175805E+003	5,500932931900024E-001
2,381782085035946E+003	5,500894784927368E-001
2,384388723314195E+003	5,500704050064087E-001
2,397398120636919E+003	5,501086115837097E-001
2,397754968748456E+003	5,500971078872681E-001
2,384962914259606E+003	5,501162409782410E-001
2,385670099844666E+003	5,501009821891785E-001
2,377688126373687E+003	5,501276850700378E-001
2,363537385655201E+003	5,501200556755066E-001
2,358322579767571E+003	5,501314997673035E-001
2,354362193590945E+003	5,500971674919128E-001
2,345461819692273E+003	5,500971674919128E-001
2,352334257949449E+003	5,500818490982056E-001
2,355134303303646E+003	5,500971078872681E-001
2,346041788924384E+003	5,500856637954712E-001
2,358254578830482E+003	5,501238703727722E-001
2,358780963785912E+003	5,500856637954712E-001
2,352476167658523E+003	5,501506328582764E-001
2,360483369324841E+003	5,501124262809753E-001
2,354228039465435E+003	5,501047968864441E-001
2,589388004866568E+003	5,730098485946655E-001
2,419157212353477E+003	5,751292109489441E-001
2,380992566452668E+003	5,750796198844910E-001
2,365546966711971E+003	5,751063227653503E-001
2,367628227410713E+003	5,751139521598816E-001
2,366846977328417E+003	5,751827359199524E-001
2,361025178845597E+003	5,751253962516785E-001
2,366710271735318E+003	5,751253962516785E-001
2,371011829970353E+003	5,751101374626160E-001
2,361039855079121E+003	5,750910639762878E-001
2,371678356037235E+003	5,750986933708191E-001
2,378001861811842E+003	5,751063227653503E-001
2,371823987049539E+003	5,750757455825806E-001
2,389607952764786E+003	5,751292705535889E-001
2,390514229753679E+003	5,750796198844910E-001
2,384336501018795E+003	5,750796198844910E-001
2,388637265235129E+003	5,750948786735535E-001
2,377571892025156E+003	5,751253962516785E-001
2,377159726667026E+003	5,751101374626160E-001
2,386927781660803E+003	5,751140117645264E-001
2,388305405633629E+003	5,751177668571472E-001
2,394539978879744E+003	5,751636028289795E-001
2,404523297543206E+003	5,751253962516785E-001
2,403850498379742E+003	5,750681757926941E-001
2,414553989159171E+003	5,751445293426514E-001
2,423611455217270E+003	5,750566720962524E-001
2,418158661843258E+003	5,750796198844910E-001
2,429434231110040E+003	5,750719904899597E-001
2,427978938331182E+003	5,751101374626160E-001
2,431545902356594E+003	5,751025080680847E-001
2,445456781700052E+003	5,750910639762878E-001
2,437030544841400E+003	5,751063227653503E-001
2,450266803141248E+003	5,751025080680847E-001
2,450766363499484E+003	5,751178264617920E-001
2,446535806872243E+003	5,750910639762878E-001
2,451883081803021E+003	5,751521587371826E-001
2,431020148654604E+003	5,751292705535889E-001
2,430331261420326E+003	5,751025080680847E-001
2,423196520485997E+003	5,751215815544128E-001
2,410656832198047E+003	5,750948786735535E-001
2,421179556661131E+003	5,751292705535889E-001
2,394120370021287E+003	5,750986933708191E-001
2,592184879937223E+003	5,980648398399353E-001
2,472630526720104E+003	6,001117229461670E-001
2,441364016346922E+003	6,001460552215576E-001
2,448963651771940E+003	6,001079082489014E-001
2,436461196067838E+003	6,001460552215576E-001
2,450855181435701E+003	6,001307964324951E-001
2,445000541623943E+003	6,001117229461670E-001
2,447679260919536E+003	6,001575589179993E-001
2,457752097815508E+003	6,001346111297607E-001
2,447215244633932E+003	6,001231670379639E-001
2,464497080560690E+003	6,001154780387878E-001
2,459910940939401E+003	6,001269817352295E-001
2,461344142773362E+003	6,001155376434326E-001
2,469896272882102E+003	6,001079082489014E-001
2,460658075073007E+003	6,001346111297607E-001
2,478569749906903E+003	6,001193523406982E-001
2,470542493957955E+003	6,001575589179993E-001
2,473294982410076E+003	6,001231670379639E-001
2,471159016671169E+003	6,000887751579285E-001
2,453533424939060E+003	6,001307964324951E-001
2,463932121310019E+003	6,000811457633972E-001
2,451284282568202E+003	6,001460552215576E-001
2,456532260967334E+003	6,001040935516357E-001
2,459630347713315E+003	6,001346111297607E-001
2,449399596182948E+003	6,001307964324951E-001
2,465381574302312E+003	6,001498699188232E-001
2,455184876676100E+003	6,001422405242920E-001
2,461761956298551E+003	6,001269817352295E-001
2,462309772949959E+003	6,001575589179993E-001
2,448826662577612E+003	6,001269817352295E-001
2,458904713699611E+003	6,001384258270264E-001
2,442635257376420E+003	6,001193523406982E-001
2,444424410316269E+003	6,001613736152649E-001
2,444368922163579E+003	6,001269817352295E-001
2,431105193589703E+003	6,001384258270264E-001
2,442835553795363E+003	6,001422405242920E-001
2,429096017259655E+003	6,001155376434326E-001
2,428119697753680E+003	6,001117229461670E-001
2,430293306120830E+003	6,001269817352295E-001
2,414811298114316E+003	6,001155376434326E-001
2,427364141887309E+003	6,001384258270264E-001
2,417985130213299E+003	6,001155376434326E-001
2,624983464750160E+003	6,230893135070801E-001
2,482474857650624E+003	6,251170635223389E-001
2,441104578156483E+003	6,250903606414795E-001
2,432742008510709E+003	6,251590847969055E-001
2,443655868713460E+003	6,251208782196045E-001
2,436519459429763E+003	6,251208782196045E-001
2,453250089256309E+003	6,250903606414795E-001
2,455319038079750E+003	6,251476407051086E-001
2,452239948767565E+003	6,251400113105774E-001
2,461890656942123E+003	6,251590847969055E-001
2,443357893482628E+003	6,251705288887024E-001
2,447230173388791E+003	6,251400113105774E-001
2,439266793259570E+003	6,251590847969055E-001
2,429847144654038E+003	6,251133084297180E-001
2,440738112470727E+003	6,250941753387451E-001
2,421943453859298E+003	6,251247525215149E-001
2,421834908750771E+003	6,251628994941711E-001
2,420638306517901E+003	6,251132488250732E-001
2,408989857058558E+003	6,251476407051086E-001
2,425949093211115E+003	6,251361370086670E-001
2,419968578740550E+003	6,251400113105774E-001
2,424913252757843E+003	6,251246929168701E-001
2,440453763837086E+003	6,251438260078430E-001
2,432761140030406E+003	6,251438260078430E-001
2,447863693264375E+003	6,251705288887024E-001
2,444300539463085E+003	6,251247525215149E-001
2,443811272026389E+003	6,251094341278076E-001
2,453429664571941E+003	6,251285672187805E-001
2,433935837581577E+003	6,250712275505066E-001
2,436990993332148E+003	6,251246929168701E-001
2,425821229951189E+003	6,251438260078430E-001
2,411502441568722E+003	6,251018047332764E-001
2,418103608590088E+003	6,251170635223389E-001
2,407078473761957E+003	6,251323223114014E-001
2,409118652168050E+003	6,251361966133118E-001
2,410146925426932E+003	6,251247525215149E-001
2,403067398027856E+003	6,251400113105774E-001
2,418391279456436E+003	6,251056194305420E-001
2,430823425500751E+003	6,251400113105774E-001
2,439279023778913E+003	6,251514554023743E-001
2,459691088264274E+003	6,251018047332764E-001
2,466705353974319E+003	6,251361370086670E-001
2,662457098509324E+003	6,480793952941895E-001
2,519118282774204E+003	6,501492261886597E-001
2,503581188900444E+003	6,501644849777222E-001
2,499004991151392E+003	6,501415967941284E-001
2,502403347623497E+003	6,501300930976868E-001
2,493891790455914E+003	6,501415371894836E-001
2,482191956361396E+003	6,501568555831909E-001
2,487596969530332E+003	6,501072049140930E-001
2,477825549021645E+003	6,500995755195618E-001
2,486932428451385E+003	6,501339077949524E-001
2,471826195036208E+003	6,501339077949524E-001
2,470527751295071E+003	6,501911878585815E-001
2,471492980681170E+003	6,501644849777222E-001
2,463019311256562E+003	6,501301527023315E-001
2,476304362722739E+003	6,501644849777222E-001
2,462959181790376E+003	6,501835584640503E-001
2,468420448079650E+003	6,501377224922180E-001
2,466337833535136E+003	6,501530408859253E-001
2,461428688266700E+003	6,501377224922180E-001
2,478426507247938E+003	6,500651836395264E-001
2,470997522837420E+003	6,500880718231201E-001
2,490552112427871E+003	6,501339077949524E-001
2,488753322286912E+003	6,501492261886597E-001
2,487101468010889E+003	6,500766277313232E-001
2,495809788699562E+003	6,501415371894836E-001
2,479380890869730E+003	6,501377224922180E-001
2,495307166425680E+003	6,501606702804565E-001
2,482454284392296E+003	6,501300930976868E-001
2,486949062260566E+003	6,501568555831909E-001
2,488302575773546E+003	6,501186490058899E-001
2,478004187850245E+003	6,501377224922180E-001
2,493767649984721E+003	6,501263380050659E-001
2,478261301208436E+003	6,501721143722534E-001
2,488495946965599E+003	6,501873731613159E-001
2,483317728682159E+003	6,501453518867493E-001
2,481690633466231E+003	6,501300930976868E-001
2,491781868009391E+003	6,501033902168274E-001
2,475443225375410E+003	6,501072049140930E-001
2,482568815031134E+003	6,501606702804565E-001
2,473009451491438E+003	6,501339077949524E-001
2,480114388614937E+003	6,501454114913940E-001
2,485606173076641E+003	6,500995755195618E-001
2,473853701622023E+003	6,501263380050659E-001
2,666135077117862E+003	6,730771660804749E-001
2,540785432534099E+003	6,751278638839722E-001
2,499529044893276E+003	6,751202344894409E-001
2,509939938773512E+003	6,751431226730347E-001
2,494445924002726E+003	6,751240491867065E-001
2,504487382017695E+003	6,751354932785034E-001
2,501622924692715E+003	6,751278638839722E-001
2,501085182720054E+003	6,751583814620972E-001
2,509670578712613E+003	6,751278638839722E-001
2,491108623475410E+003	6,751239895820618E-001
2,506471956076962E+003	6,751278638839722E-001
2,492408626924460E+003	6,751660108566284E-001
2,501562203905002E+003	6,751278638839722E-001
2,498698428939166E+003	6,751164197921753E-001
2,490509938180925E+003	6,751126050949097E-001
2,504497318554969E+003	6,751545667648315E-001
2,490646900331915E+003	6,751393079757690E-001
2,503362304652150E+003	6,751316785812378E-001
2,494328916510356E+003	6,751354932785034E-001
2,500791459833340E+003	6,751660704612732E-001
2,505447568098280E+003	6,751125454902649E-001
2,502191675999439E+003	6,751316785812378E-001
2,508953266495604E+003	6,751354932785034E-001
2,497755545762731E+003	6,751469373703003E-001
2,506971025490298E+003	6,751278638839722E-001
2,497934498436969E+003	6,751545667648315E-001
2,506853665568643E+003	6,751469373703003E-001
2,501075144666695E+003	6,751354932785034E-001
2,504110016794324E+003	6,751278638839722E-001
2,509739947934487E+003	6,751621961593628E-001
2,499950041106138E+003	6,751087307929993E-001
2,513666145325087E+003	6,751545667648315E-001
2,498471694016735E+003	6,751431226730347E-001
2,512806674182637E+003	6,751431226730347E-001
2,499839298820923E+003	6,751507520675659E-001
2,494835172084241E+003	6,751431226730347E-001
2,498660322056935E+003	6,751202344894409E-001
2,484143573641139E+003	6,751507520675659E-001
2,497232976357774E+003	6,751546263694763E-001
2,473587489856408E+003	6,751469373703003E-001
2,477630142637146E+003	6,751622557640076E-001
2,475465104700125E+003	6,751583814620972E-001
2,474722622894646E+003	6,751469373703003E-001
2,709815254002566E+003	6,981322169303894E-001
2,522759536427572E+003	7,001485228538513E-001
2,509245492507369E+003	7,001675963401794E-001
2,489619710298928E+003	7,001714706420898E-001
2,502942594454664E+003	7,001370191574097E-001
2,485485775102291E+003	7,001370191574097E-001
2,490879985189033E+003	7,001408338546753E-001
2,491742009820833E+003	7,001675963401794E-001
2,483288533570968E+003	7,001637220382690E-001
2,501770980311119E+003	7,001408934593201E-001
2,484833646627135E+003	7,001637816429138E-001
2,498037155540633E+003	7,001714110374451E-001
2,495708704393158E+003	7,001103162765503E-001
2,504320055678017E+003	7,001790404319763E-001
2,515734301266339E+003	7,001141309738159E-001
2,507589906144969E+003	7,001752257347107E-001
2,517504414149303E+003	7,001752257347107E-001
2,502922539007893E+003	7,001522779464722E-001
2,507217399770221E+003	7,001446485519409E-001
2,491110164338630E+003	7,001217603683472E-001
2,492022774385520E+003	7,001790404319763E-001
2,486423215773854E+003	7,001675963401794E-001
2,482422806342881E+003	7,001561522483826E-001
2,493644828917335E+003	7,001981139183044E-001
2,486411421623220E+003	7,001293897628784E-001
2,502802914172158E+003	7,001790404319763E-001
2,493406748925171E+003	7,001752257347107E-001
2,503025341970268E+003	7,001560926437378E-001
2,501120210625826E+003	7,001446485519409E-001
2,490768985509408E+003	7,001714110374451E-001
2,500413092204918E+003	7,001981735229492E-001
2,483430560514211E+003	7,001447081565857E-001
2,504263408258581E+003	7,001599669456482E-001
2,495615572018531E+003	7,001599669456482E-001
2,503436099484642E+003	7,001599669456482E-001
2,507762490714641E+003	7,001866698265076E-001
2,493671086005515E+003	7,001026868820190E-001
2,507784153791059E+003	7,001599669456482E-001
2,492952967838304E+003	7,001790404319763E-001
2,509866640008349E+003	7,001217603683472E-001
2,503570870274596E+003	7,001637816429138E-001
2,505191448812026E+003	7,001905441284180E-001
2,503913244826711E+003	7,001293897628784E-001
